#Mirror displacement noise requirements in [m/sqrt(Hz). The mirror vibration levels have to be below these values in order to keep the contribution of these noises to DARM below the target sensitivity by the safety factor 10.
#freq, SAS Noise,ETMX,ETMY,ITMX,ITMY,BS,PRM,SRM
1,7.775e-16,2.453e-13,2.2233e-13,1.8486e-13,7.1504e-14,7.4865e-14,2.4259e-11,5.2819e-14
1.0093,7.2126e-16,2.2701e-13,2.067e-13,1.8718e-13,6.8557e-14,7.2862e-14,2.3329e-11,5.1405e-14
1.0186,6.7359e-16,2.1153e-13,1.9343e-13,1.9101e-13,6.608e-14,7.1291e-14,2.2579e-11,5.0297e-14
1.028,6.239e-16,1.9552e-13,1.795e-13,1.9359e-13,6.3087e-14,6.9094e-14,2.1668e-11,4.8747e-14
1.0376,5.8201e-16,1.8204e-13,1.6775e-13,1.9797e-13,6.0585e-14,6.7364e-14,2.0935e-11,4.7526e-14
1.0472,5.3843e-16,1.6811e-13,1.5544e-13,2.0122e-13,5.7635e-14,6.5061e-14,2.0052e-11,4.5901e-14
1.0569,5.0157e-16,1.5634e-13,1.4503e-13,2.0651e-13,5.5149e-14,6.3208e-14,1.9333e-11,4.4594e-14
1.0667,4.6689e-16,1.453e-13,1.352e-13,2.125e-13,5.2678e-14,6.1304e-14,1.862e-11,4.3251e-14
1.0765,4.343e-16,1.3496e-13,1.2593e-13,2.1939e-13,5.0236e-14,5.9361e-14,1.7914e-11,4.1881e-14
1.0865,4.0378e-16,1.253e-13,1.1723e-13,2.2749e-13,4.7839e-14,5.7402e-14,1.722e-11,4.0499e-14
1.0966,3.7509e-16,1.1625e-13,1.0904e-13,2.3709e-13,4.5481e-14,5.5418e-14,1.6533e-11,3.91e-14
1.1067,3.4829e-16,1.0781e-13,1.0136e-13,2.4877e-13,4.3185e-14,5.3439e-14,1.5861e-11,3.7704e-14
1.117,3.2303e-16,9.9877e-14,9.4114e-14,2.6305e-13,4.0927e-14,5.1434e-14,1.5194e-11,3.6289e-14
1.1273,2.9966e-16,9.2549e-14,8.7394e-14,2.8132e-13,3.8766e-14,4.948e-14,1.4553e-11,3.4911e-14
1.1378,2.7954e-16,8.6244e-14,8.1605e-14,3.0689e-13,3.69e-14,4.7836e-14,1.4013e-11,3.3752e-14
1.1483,2.5888e-16,7.9794e-14,7.5645e-14,3.3866e-13,3.4848e-14,4.5886e-14,1.339e-11,3.2376e-14
1.1589,2.4119e-16,7.4271e-14,7.0537e-14,3.857e-13,3.3086e-14,4.4253e-14,1.2869e-11,3.1225e-14
1.1697,2.2469e-16,6.9129e-14,6.5767e-14,4.5573e-13,3.1393e-14,4.2652e-14,1.2363e-11,3.0096e-14
1.1805,2.0909e-16,6.4277e-14,6.1252e-14,5.6959e-13,2.9739e-14,4.1044e-14,1.1861e-11,2.8962e-14
1.1915,1.9314e-16,5.9326e-14,5.6623e-14,7.8156e-13,2.7948e-14,3.9185e-14,1.1291e-11,2.7651e-14
1.2025,1.7959e-16,5.512e-14,5.2687e-14,1.3517e-12,2.6424e-14,3.7639e-14,1.0818e-11,2.656e-14
1.2136,1.678e-16,5.1464e-14,4.9263e-14,6.4267e-12,2.5094e-14,3.6315e-14,1.0412e-11,2.5627e-14
1.2249,1.5575e-16,4.7734e-14,4.5755e-14,1.8853e-12,2.3662e-14,3.4791e-14,9.9521e-12,2.4551e-14
1.2362,1.4452e-16,4.4265e-14,4.2485e-14,7.938e-13,2.2296e-14,3.3308e-14,9.508e-12,2.3506e-14
1.2477,1.3479e-16,4.1258e-14,3.9648e-14,4.8552e-13,2.1106e-14,3.2038e-14,9.1277e-12,2.261e-14
1.2592,1.2484e-16,3.819e-14,3.6743e-14,3.3811e-13,1.9834e-14,3.0592e-14,8.6999e-12,2.159e-14
1.2709,1.1629e-16,3.5552e-14,3.4245e-14,2.5441e-13,1.8737e-14,2.9367e-14,8.3377e-12,2.0726e-14
1.2826,1.0834e-16,3.3103e-14,3.1921e-14,2.001e-13,1.7696e-14,2.8185e-14,7.9898e-12,1.9893e-14
1.2945,1.008e-16,3.0783e-14,2.9715e-14,1.6197e-13,1.6686e-14,2.7007e-14,7.645e-12,1.9062e-14
1.3065,9.3684e-17,2.8595e-14,2.7631e-14,1.3382e-13,1.5711e-14,2.5843e-14,7.3058e-12,1.8241e-14
1.3186,8.7047e-17,2.6556e-14,2.5686e-14,1.1234e-13,1.4783e-14,2.4713e-14,6.9783e-12,1.7444e-14
1.3308,8.0824e-17,2.4646e-14,2.3861e-14,9.5454e-14,1.3896e-14,2.361e-14,6.6595e-12,1.6666e-14
1.3432,7.5005e-17,2.2861e-14,2.2153e-14,8.1889e-14,1.3051e-14,2.2538e-14,6.3506e-12,1.5909e-14
1.3556,6.9961e-17,2.1315e-14,2.0672e-14,7.1204e-14,1.2316e-14,2.1618e-14,6.086e-12,1.5261e-14
1.3682,6.4845e-17,1.9747e-14,1.9168e-14,6.1949e-14,1.1546e-14,2.06e-14,5.7945e-12,1.4542e-14
1.3808,6.041e-17,1.8389e-14,1.7864e-14,5.4491e-14,1.0877e-14,1.9724e-14,5.5443e-12,1.3925e-14
1.3936,5.6244e-17,1.7114e-14,1.6639e-14,4.8142e-14,1.0237e-14,1.8871e-14,5.3008e-12,1.3323e-14
1.4065,5.2323e-17,1.5915e-14,1.5485e-14,4.2683e-14,9.624e-15,1.8035e-14,5.0631e-12,1.2733e-14
1.4196,4.8645e-17,1.4791e-14,1.4401e-14,3.7962e-14,9.04e-15,1.7221e-14,4.8323e-12,1.2159e-14
1.4327,4.5198e-17,1.3738e-14,1.3385e-14,3.3853e-14,8.484e-15,1.643e-14,4.6084e-12,1.1602e-14
1.446,4.1967e-17,1.2751e-14,1.2432e-14,3.0258e-14,7.955e-15,1.5662e-14,4.3914e-12,1.106e-14
1.4594,3.8949e-17,1.183e-14,1.1542e-14,2.7102e-14,7.4538e-15,1.492e-14,4.1821e-12,1.0536e-14
1.4729,3.6313e-17,1.1026e-14,1.0764e-14,2.4444e-14,7.0145e-15,1.4275e-14,4.0004e-12,1.0081e-14
1.4865,3.3836e-17,1.0271e-14,1.0033e-14,2.208e-14,6.5959e-15,1.3648e-14,3.8239e-12,9.6385e-15
1.5003,3.1344e-17,9.5117e-15,9.2969e-15,1.9866e-14,6.1647e-15,1.2969e-14,3.6334e-12,9.1597e-15
1.5142,2.9162e-17,8.8471e-15,8.6523e-15,1.7982e-14,5.7856e-15,1.2376e-14,3.4671e-12,8.7413e-15
1.5282,2.7121e-17,8.2255e-15,8.0488e-15,1.6296e-14,5.4264e-15,1.1803e-14,3.3065e-12,8.3369e-15
1.5424,2.5207e-17,7.6429e-15,7.4827e-15,1.478e-14,5.0854e-15,1.1248e-14,3.1511e-12,7.9449e-15
1.5567,2.3531e-17,7.1327e-15,6.9869e-15,1.3482e-14,4.7858e-15,1.0764e-14,3.0158e-12,7.6034e-15
1.5711,2.1843e-17,6.6194e-15,6.4873e-15,1.2243e-14,4.4778e-15,1.0241e-14,2.8698e-12,7.2346e-15
1.5856,2.0358e-17,6.168e-15,6.0479e-15,1.1176e-14,4.2059e-15,9.782e-15,2.7417e-12,6.9107e-15
1.6003,1.8873e-17,5.7165e-15,5.6079e-15,1.0158e-14,3.9285e-15,9.2918e-15,2.605e-12,6.5647e-15
1.6151,1.7569e-17,5.3205e-15,5.2217e-15,9.2797e-15,3.6843e-15,8.8621e-15,2.4853e-12,6.2615e-15
1.6301,1.6353e-17,4.951e-15,4.8613e-15,8.4837e-15,3.4541e-15,8.4496e-15,2.3704e-12,5.9704e-15
1.6452,1.5207e-17,4.6029e-15,4.5215e-15,7.7551e-15,3.2347e-15,8.0476e-15,2.2585e-12,5.6867e-15
1.6604,1.4134e-17,4.2772e-15,4.2033e-15,7.0911e-15,3.0272e-15,7.6599e-15,2.1507e-12,5.413e-15
1.6758,1.3182e-17,3.9884e-15,3.9211e-15,6.5111e-15,2.8425e-15,7.3153e-15,2.0549e-12,5.1699e-15
1.6913,1.2233e-17,3.7004e-15,3.6394e-15,5.9525e-15,2.6553e-15,6.9502e-15,1.9534e-12,4.9122e-15
1.707,1.14e-17,3.4479e-15,3.3924e-15,5.4687e-15,2.4906e-15,6.6309e-15,1.8647e-12,4.6868e-15
1.7228,1.062e-17,3.2112e-15,3.1607e-15,5.0249e-15,2.3348e-15,6.3225e-15,1.7791e-12,4.4691e-15
1.7388,9.8792e-18,2.9867e-15,2.9408e-15,4.6133e-15,2.1854e-15,6.0197e-15,1.6949e-12,4.2553e-15
1.7549,9.188e-18,2.7772e-15,2.7355e-15,4.2366e-15,2.0448e-15,5.7292e-15,1.6142e-12,4.0502e-15
1.7711,8.5402e-18,2.5809e-15,2.543e-15,3.8904e-15,1.9119e-15,5.4489e-15,1.5364e-12,3.8524e-15
1.7875,7.9671e-18,2.4073e-15,2.3727e-15,3.5872e-15,1.7939e-15,5.2009e-15,1.4676e-12,3.6772e-15
1.8041,7.3964e-18,2.2344e-15,2.2031e-15,3.2931e-15,1.6748e-15,4.9394e-15,1.3949e-12,3.4926e-15
1.8208,6.8928e-18,2.0819e-15,2.0534e-15,3.0358e-15,1.5695e-15,4.7085e-15,1.3308e-12,3.3296e-15
1.8377,6.4198e-18,1.9387e-15,1.9127e-15,2.7982e-15,1.4697e-15,4.4854e-15,1.2689e-12,3.1721e-15
1.8547,5.981e-18,1.8059e-15,1.7822e-15,2.5809e-15,1.3765e-15,4.2737e-15,1.2101e-12,3.0226e-15
1.8719,5.6829e-18,1.7156e-15,1.6936e-15,2.4286e-15,1.3146e-15,4.1525e-15,1.1769e-12,2.9371e-15
1.8892,5.2129e-18,1.5734e-15,1.5537e-15,2.207e-15,1.212e-15,3.8948e-15,1.105e-12,2.7551e-15
1.9067,4.8219e-18,1.4551e-15,1.4372e-15,2.023e-15,1.1267e-15,3.6833e-15,1.0461e-12,2.6057e-15
1.9244,4.4721e-18,1.3493e-15,1.3331e-15,1.8599e-15,1.05e-15,3.4923e-15,9.9287e-13,2.4707e-15
1.9422,4.1639e-18,1.256e-15,1.2413e-15,1.7171e-15,9.8222e-16,3.3238e-15,9.4601e-13,2.3517e-15
1.9602,3.8757e-18,1.1688e-15,1.1554e-15,1.5851e-15,9.1841e-16,3.162e-15,9.01e-13,2.2375e-15
1.9783,3.6056e-18,1.0871e-15,1.0748e-15,1.463e-15,8.5822e-16,3.0063e-15,8.5764e-13,2.1275e-15
1.9966,3.3653e-18,1.0143e-15,1.0031e-15,1.3549e-15,8.0448e-16,2.8673e-15,8.1896e-13,2.0293e-15
2.0151,3.1269e-18,9.4211e-16,9.3197e-16,1.2494e-15,7.506e-16,2.722e-15,7.7844e-13,1.9266e-15
2.0338,2.9147e-18,8.7775e-16,8.6851e-16,1.1559e-15,7.0243e-16,2.5919e-15,7.4218e-13,1.8347e-15
2.0526,2.7152e-18,8.1719e-16,8.0876e-16,1.0689e-15,6.568e-16,2.4659e-15,7.0705e-13,1.7457e-15
2.0716,2.5287e-18,7.6045e-16,7.5277e-16,9.8816e-16,6.1379e-16,2.3448e-15,6.7325e-13,1.6601e-15
2.0908,2.3527e-18,7.0668e-16,6.997e-16,9.1247e-16,5.7277e-16,2.2265e-15,6.4017e-13,1.5765e-15
2.1102,2.1877e-18,6.559e-16,6.4956e-16,8.417e-16,5.3378e-16,2.1114e-15,6.0794e-13,1.4951e-15
2.1297,2.0401e-18,6.0993e-16,6.0416e-16,7.7804e-16,4.9835e-16,2.0058e-15,5.7841e-13,1.4206e-15
2.1495,1.8951e-18,5.6409e-16,5.5887e-16,7.154e-16,4.627e-16,1.8951e-15,5.473e-13,1.3423e-15
2.1694,1.7658e-18,5.2272e-16,5.1798e-16,6.5921e-16,4.3041e-16,1.7939e-15,5.1887e-13,1.2707e-15
2.1895,1.6436e-18,4.8472e-16,4.8041e-16,6.0795e-16,4.0062e-16,1.6991e-15,4.9224e-13,1.2037e-15
2.2098,1.5345e-18,4.5325e-16,4.4931e-16,5.6548e-16,3.7599e-16,1.6228e-15,4.7089e-13,1.1497e-15
2.2302,1.4271e-18,4.2343e-16,4.1982e-16,5.2555e-16,3.5251e-16,1.5483e-15,4.5002e-13,1.0971e-15
2.2509,1.3307e-18,3.9647e-16,3.9317e-16,4.8964e-16,3.3124e-16,1.4805e-15,4.3107e-13,1.0492e-15
2.2717,1.2403e-18,3.7062e-16,3.676e-16,4.5549e-16,3.1072e-16,1.4133e-15,4.1221e-13,1.0017e-15
2.2928,1.155e-18,3.4581e-16,3.4304e-16,4.2299e-16,2.909e-16,1.3465e-15,3.9344e-13,9.5448e-16
2.314,1.0751e-18,3.2227e-16,3.1975e-16,3.924e-16,2.72e-16,1.2813e-15,3.7508e-13,9.0837e-16
2.3354,1.0007e-18,3.0024e-16,2.9794e-16,3.6394e-16,2.5423e-16,1.2188e-15,3.5744e-13,8.6416e-16
2.3571,9.333e-19,2.8017e-16,2.7807e-16,3.3814e-16,2.38e-16,1.1612e-15,3.412e-13,8.2341e-16
2.3789,8.7008e-19,2.6131e-16,2.5938e-16,3.1404e-16,2.2266e-16,1.1056e-15,3.2551e-13,7.8412e-16
2.4009,8.1057e-19,2.4351e-16,2.4175e-16,2.9144e-16,2.0813e-16,1.0518e-15,3.1028e-13,7.4604e-16
2.4232,7.5481e-19,2.268e-16,2.252e-16,2.7037e-16,1.9444e-16,1e-15,2.956e-13,7.0941e-16
2.4456,7.0455e-19,2.1173e-16,2.1027e-16,2.5142e-16,1.8206e-16,9.5297e-16,2.8228e-13,6.7612e-16
2.4683,6.5527e-19,1.9695e-16,1.9561e-16,2.3298e-16,1.6983e-16,9.0476e-16,2.6857e-13,6.42e-16
2.4911,6.1095e-19,1.8364e-16,1.8242e-16,2.1644e-16,1.5881e-16,8.6107e-16,2.5615e-13,6.1109e-16
2.5142,5.6934e-19,1.7114e-16,1.7003e-16,2.0098e-16,1.4841e-16,8.1901e-16,2.4418e-13,5.8132e-16
2.5375,5.3025e-19,1.594e-16,1.5838e-16,1.8653e-16,1.386e-16,7.7849e-16,2.3262e-13,5.5264e-16
2.561,4.9499e-19,1.488e-16,1.4787e-16,1.7354e-16,1.2973e-16,7.4166e-16,2.2213e-13,5.2657e-16
2.5847,4.6178e-19,1.3882e-16,1.3797e-16,1.6136e-16,1.2135e-16,7.0607e-16,2.1197e-13,5.0138e-16
2.6087,4.3053e-19,1.2943e-16,1.2865e-16,1.4996e-16,1.1343e-16,6.7174e-16,2.0215e-13,4.7708e-16
2.6328,4.012e-19,1.2061e-16,1.199e-16,1.393e-16,1.0596e-16,6.3874e-16,1.9269e-13,4.5371e-16
2.6572,3.7368e-19,1.1234e-16,1.1169e-16,1.2934e-16,9.8937e-17,6.0701e-16,1.8357e-13,4.3125e-16
2.6818,3.4877e-19,1.0485e-16,1.0425e-16,1.2035e-16,9.2564e-17,5.7805e-16,1.7526e-13,4.1074e-16
2.7067,3.2541e-19,9.7822e-17,9.728e-17,1.1196e-16,8.6567e-17,5.5025e-16,1.6726e-13,3.9105e-16
2.7317,3.0332e-19,9.1182e-17,9.0687e-17,1.0406e-16,8.0879e-17,5.2327e-16,1.5948e-13,3.7194e-16
2.757,2.8266e-19,8.4969e-17,8.4517e-17,9.6702e-17,7.5539e-17,4.9746e-16,1.5203e-13,3.5365e-16
2.7826,2.639e-19,7.9328e-17,7.8914e-17,9.0036e-17,7.0682e-17,4.7379e-16,1.4519e-13,3.3689e-16
2.8083,2.4567e-19,7.3844e-17,7.3467e-17,8.359e-17,6.594e-17,4.4991e-16,1.3826e-13,3.1996e-16
2.8343,2.2908e-19,6.8858e-17,6.8513e-17,7.7743e-17,6.162e-17,4.2795e-16,1.3189e-13,3.044e-16
2.8606,2.1411e-19,6.4356e-17,6.404e-17,7.2476e-17,5.7712e-17,4.0799e-16,1.261e-13,2.9025e-16
2.8871,1.9953e-19,5.9973e-17,5.9684e-17,6.7374e-17,5.3893e-17,3.8781e-16,1.2022e-13,2.7595e-16
2.9138,1.8626e-19,5.5983e-17,5.5719e-17,6.274e-17,5.0409e-17,3.6923e-16,1.1481e-13,2.6278e-16
2.9408,1.7376e-19,5.2224e-17,5.1983e-17,5.839e-17,4.7119e-17,3.5131e-16,1.0958e-13,2.5008e-16
2.9681,1.6206e-19,4.8705e-17,4.8484e-17,5.433e-17,4.4029e-17,3.3416e-16,1.0456e-13,2.3792e-16
2.9955,1.5136e-19,4.5488e-17,4.5286e-17,5.0627e-17,4.1199e-17,3.1828e-16,9.9908e-14,2.2666e-16
3.0233,1.4098e-19,4.2369e-17,4.2184e-17,4.7052e-17,3.8446e-17,3.0234e-16,9.5215e-14,2.1535e-16
3.0513,1.3159e-19,3.9546e-17,3.9377e-17,4.3823e-17,3.5951e-17,2.8778e-16,9.0933e-14,2.0503e-16
3.0796,1.2302e-19,3.6968e-17,3.6813e-17,4.0881e-17,3.3668e-17,2.7434e-16,8.6981e-14,1.9549e-16
3.1081,1.1466e-19,3.4457e-17,3.4315e-17,3.8025e-17,3.1436e-17,2.6075e-16,8.2959e-14,1.8585e-16
3.1369,1.0712e-19,3.2189e-17,3.2059e-17,3.5452e-17,2.9418e-17,2.4839e-16,7.9306e-14,1.7708e-16
3.1659,9.9952e-20,3.0035e-17,2.9917e-17,3.3015e-17,2.7497e-17,2.3634e-16,7.5728e-14,1.6852e-16
3.1952,9.3233e-20,2.8016e-17,2.7907e-17,3.0737e-17,2.5691e-17,2.2478e-16,7.2289e-14,1.6032e-16
3.2248,8.7128e-20,2.6181e-17,2.6081e-17,2.867e-17,2.4047e-17,2.1418e-16,6.9137e-14,1.5279e-16
3.2547,8.1371e-20,2.4451e-17,2.436e-17,2.6726e-17,2.2494e-17,2.0394e-16,6.6085e-14,1.4553e-16
3.2849,7.5952e-20,2.2822e-17,2.2739e-17,2.4902e-17,2.1029e-17,1.9409e-16,6.3135e-14,1.3853e-16
3.3153,7.0855e-20,2.129e-17,2.1214e-17,2.319e-17,1.9648e-17,1.846e-16,6.0286e-14,1.3179e-16
3.346,6.621e-20,1.9895e-17,1.9825e-17,2.1633e-17,1.8388e-17,1.7586e-16,5.7664e-14,1.2558e-16
3.377,6.1842e-20,1.8582e-17,1.8518e-17,2.0172e-17,1.72e-17,1.6746e-16,5.5136e-14,1.1961e-16
3.4083,5.773e-20,1.7346e-17,1.7288e-17,1.88e-17,1.608e-17,1.5936e-16,5.2691e-14,1.1386e-16
3.4398,5.3972e-20,1.6218e-17,1.6164e-17,1.7548e-17,1.5055e-17,1.5189e-16,5.0433e-14,1.0855e-16
3.4717,5.0427e-20,1.5153e-17,1.5103e-17,1.637e-17,1.4086e-17,1.4467e-16,4.8245e-14,1.0342e-16
3.5038,4.71e-20,1.4153e-17,1.4108e-17,1.5267e-17,1.3175e-17,1.3774e-16,4.614e-14,9.8492e-17
3.5363,4.3959e-20,1.3209e-17,1.3168e-17,1.4228e-17,1.2313e-17,1.3105e-16,4.4096e-14,9.3732e-17
3.569,4.1102e-20,1.2351e-17,1.2313e-17,1.3284e-17,1.1528e-17,1.249e-16,4.2222e-14,8.9361e-17
3.6021,3.8399e-20,1.1539e-17,1.1504e-17,1.2393e-17,1.0784e-17,1.1894e-16,4.0397e-14,8.5124e-17
3.6355,3.5866e-20,1.0778e-17,1.0746e-17,1.1559e-17,1.0086e-17,1.1324e-16,3.8646e-14,8.1068e-17
3.6691,3.354e-20,1.008e-17,1.0051e-17,1.0795e-17,9.4444e-18,1.0794e-16,3.7018e-14,7.7298e-17
3.7031,3.1353e-20,9.4229e-18,9.3961e-18,1.0078e-17,8.8398e-18,1.0285e-16,3.5447e-14,7.3673e-17
3.7374,2.9289e-20,8.8029e-18,8.7784e-18,9.403e-18,8.2682e-18,9.7928e-17,3.3923e-14,7.0171e-17
3.772,2.7401e-20,8.2361e-18,8.2136e-18,8.7863e-18,7.745e-18,9.3381e-17,3.2516e-14,6.6934e-17
3.807,2.5626e-20,7.703e-18,7.6824e-18,8.2072e-18,7.252e-18,8.901e-17,3.1158e-14,6.3821e-17
3.8422,2.3946e-20,7.1986e-18,7.1797e-18,7.6604e-18,6.7849e-18,8.4773e-17,2.9836e-14,6.0804e-17
3.8778,2.2405e-20,6.736e-18,6.7187e-18,7.1595e-18,6.356e-18,8.0843e-17,2.8609e-14,5.8004e-17
3.9137,2.0959e-20,6.302e-18,6.2861e-18,6.6903e-18,5.953e-18,7.7078e-17,2.7431e-14,5.5322e-17
3.95,1.9601e-20,5.8942e-18,5.8796e-18,6.2501e-18,5.5737e-18,7.3465e-17,2.6295e-14,5.2748e-17
3.9866,1.8346e-20,5.5177e-18,5.5043e-18,5.8444e-18,5.2232e-18,7.0084e-17,2.5232e-14,5.0338e-17
4.0235,1.7169e-20,5.1645e-18,5.1521e-18,5.4641e-18,4.8939e-18,6.6845e-17,2.421e-14,4.8029e-17
4.0608,1.6052e-20,4.8291e-18,4.8178e-18,5.1038e-18,4.5808e-18,6.3693e-17,2.321e-14,4.5781e-17
4.0984,1.5007e-20,4.5156e-18,4.5052e-18,4.7674e-18,4.2877e-18,6.0689e-17,2.2253e-14,4.3638e-17
4.1363,1.404e-20,4.2256e-18,4.2161e-18,4.4566e-18,4.0162e-18,5.7869e-17,2.1354e-14,4.1626e-17
4.1747,1.3158e-20,3.9609e-18,3.9521e-18,4.1732e-18,3.7682e-18,5.5271e-17,2.0529e-14,3.9773e-17
4.2133,1.2305e-20,3.7051e-18,3.6971e-18,3.8998e-18,3.5282e-18,5.2681e-17,1.9697e-14,3.7924e-17
4.2523,1.1517e-20,3.4688e-18,3.4614e-18,3.6475e-18,3.3062e-18,5.0253e-17,1.8917e-14,3.6191e-17
4.2917,1.08e-20,3.2537e-18,3.2469e-18,3.4181e-18,3.1041e-18,4.8027e-17,1.8205e-14,3.4603e-17
4.3315,1.0099e-20,3.0434e-18,3.0372e-18,3.1942e-18,2.906e-18,4.5771e-17,1.7473e-14,3.2991e-17
4.3716,9.4713e-21,2.8553e-18,2.8496e-18,2.994e-18,2.7288e-18,4.3751e-17,1.6824e-14,3.1548e-17
4.4121,8.8656e-21,2.6738e-18,2.6685e-18,2.8011e-18,2.5575e-18,4.1741e-17,1.617e-14,3.0112e-17
4.453,8.3085e-21,2.5068e-18,2.502e-18,2.6239e-18,2.3998e-18,3.987e-17,1.5563e-14,2.8775e-17
4.4942,7.7826e-21,2.3493e-18,2.3448e-18,2.4569e-18,2.2508e-18,3.8066e-17,1.4975e-14,2.7485e-17
4.5358,7.2978e-21,2.2041e-18,2.2e-18,2.3031e-18,2.1134e-18,3.6383e-17,1.4427e-14,2.6282e-17
4.5778,6.8416e-21,2.0674e-18,2.0637e-18,2.1585e-18,1.984e-18,3.4768e-17,1.39e-14,2.5127e-17
4.6202,6.4107e-21,1.9384e-18,1.935e-18,2.0222e-18,1.8617e-18,3.3209e-17,1.3388e-14,2.4012e-17
4.663,6.0136e-21,1.8196e-18,1.8164e-18,1.8967e-18,1.7488e-18,3.1756e-17,1.2913e-14,2.2972e-17
4.7062,5.6393e-21,1.7076e-18,1.7046e-18,1.7786e-18,1.6424e-18,3.0358e-17,1.2454e-14,2.1972e-17
4.7498,5.2936e-21,1.6042e-18,1.6015e-18,1.6696e-18,1.5441e-18,2.9052e-17,1.2026e-14,2.1037e-17
4.7938,4.9678e-21,1.5068e-18,1.5043e-18,1.567e-18,1.4514e-18,2.7797e-17,1.1614e-14,2.0138e-17
4.8382,4.6612e-21,1.4151e-18,1.4128e-18,1.4706e-18,1.3641e-18,2.6592e-17,1.1218e-14,1.9276e-17
4.883,4.3776e-21,1.3304e-18,1.3283e-18,1.3816e-18,1.2833e-18,2.5465e-17,1.0848e-14,1.8468e-17
4.9282,4.1095e-21,1.2503e-18,1.2483e-18,1.2975e-18,1.2069e-18,2.4377e-17,1.0491e-14,1.7689e-17
4.9739,3.8628e-21,1.1766e-18,1.1748e-18,1.2202e-18,1.1365e-18,2.3367e-17,1.0162e-14,1.6965e-17
5.02,3.6296e-21,1.1071e-18,1.1054e-18,1.1473e-18,1.07e-18,2.2393e-17,9.8442e-15,1.6267e-17
5.0665,3.4097e-21,1.0415e-18,1.0399e-18,1.0786e-18,1.0073e-18,2.1457e-17,9.5388e-15,1.5596e-17
5.1134,3.2072e-21,9.8113e-19,9.797e-19,1.0155e-18,9.4952e-19,2.0587e-17,9.259e-15,1.4973e-17
5.1607,3.0192e-21,9.2509e-19,9.2377e-19,9.5685e-19,8.9585e-19,1.977e-17,8.999e-15,1.4387e-17
5.2085,2.8421e-21,8.7238e-19,8.7115e-19,9.0176e-19,8.4532e-19,1.8988e-17,8.7516e-15,1.3826e-17
5.2568,2.6745e-21,8.225e-19,8.2137e-19,8.4969e-19,7.9747e-19,1.8233e-17,8.5136e-15,1.3284e-17
5.3055,2.5176e-21,7.7586e-19,7.7481e-19,8.0102e-19,7.5268e-19,1.7516e-17,8.2906e-15,1.277e-17
5.3546,2.3744e-21,7.333e-19,7.3232e-19,7.5663e-19,7.1181e-19,1.686e-17,8.0944e-15,1.2299e-17
5.4042,2.2371e-21,6.9251e-19,6.9161e-19,7.1413e-19,6.7259e-19,1.6215e-17,7.9019e-15,1.1836e-17
5.4543,2.1093e-21,6.5461e-19,6.5378e-19,6.7467e-19,6.3614e-19,1.5609e-17,7.7273e-15,1.1401e-17
5.5048,1.9917e-21,6.1973e-19,6.1895e-19,6.3837e-19,6.0257e-19,1.5048e-17,7.5749e-15,1.0999e-17
5.5558,1.88e-21,5.8664e-19,5.8592e-19,6.0396e-19,5.707e-19,1.4506e-17,7.4322e-15,1.061e-17
5.6072,1.7753e-21,5.5565e-19,5.5498e-19,5.7175e-19,5.4084e-19,1.3991e-17,7.3053e-15,1.0241e-17
5.6592,1.6787e-21,5.2706e-19,5.2643e-19,5.4204e-19,5.1327e-19,1.3514e-17,7.2008e-15,9.8982e-18
5.7116,1.5888e-21,5.0049e-19,4.9991e-19,5.1446e-19,4.8765e-19,1.3067e-17,7.1173e-15,9.5779e-18
5.7645,1.5017e-21,4.7478e-19,4.7424e-19,4.8779e-19,4.6283e-19,1.2622e-17,7.0414e-15,9.2584e-18
5.8179,1.4236e-21,4.5173e-19,4.5122e-19,4.6387e-19,4.4057e-19,1.2228e-17,7.0035e-15,8.9761e-18
5.8718,1.3489e-21,4.297e-19,4.2923e-19,4.4104e-19,4.1929e-19,1.1843e-17,6.9842e-15,8.7003e-18
5.9262,1.2785e-21,4.0896e-19,4.0852e-19,4.1956e-19,3.9924e-19,1.1476e-17,6.9936e-15,8.4375e-18
5.981,1.2136e-21,3.8984e-19,3.8943e-19,3.9976e-19,3.8075e-19,1.1138e-17,7.0455e-15,8.1955e-18
6.0364,1.1523e-21,3.718e-19,3.7141e-19,3.8108e-19,3.6329e-19,1.0815e-17,7.142e-15,7.9643e-18
6.0923,1.0954e-21,3.5504e-19,3.5468e-19,3.6375e-19,3.4708e-19,1.0515e-17,7.303e-15,7.7495e-18
6.1488,1.0424e-21,3.3943e-19,3.3909e-19,3.476e-19,3.3196e-19,1.0234e-17,7.5497e-15,7.5491e-18
6.2057,9.9241e-22,3.2468e-19,3.2436e-19,3.3235e-19,3.1767e-19,9.9656e-18,7.913e-15,7.3579e-18
6.2632,9.4517e-22,3.1071e-19,3.1041e-19,3.1791e-19,3.0413e-19,9.7083e-18,8.4498e-15,7.1745e-18
6.3212,9.0127e-22,2.9766e-19,2.9737e-19,3.0443e-19,2.9147e-19,9.4675e-18,9.2678e-15,7.0032e-18
6.3798,8.6044e-22,2.8541e-19,2.8515e-19,2.9179e-19,2.796e-19,9.2408e-18,1.0558e-14,6.8424e-18
6.4389,8.218e-22,2.737e-19,2.7345e-19,2.7971e-19,2.6823e-19,9.0202e-18,1.2695e-14,6.686e-18
6.4985,7.853e-22,2.6249e-19,2.6225e-19,2.6814e-19,2.5735e-19,8.8052e-18,1.6406e-14,6.5337e-18
6.5587,7.5188e-22,2.5201e-19,2.5179e-19,2.5733e-19,2.4716e-19,8.6046e-18,2.2019e-14,6.3919e-18
6.6194,7.1964e-22,2.4177e-19,2.4156e-19,2.4679e-19,2.3721e-19,8.4026e-18,2.2681e-14,6.2488e-18
6.6807,6.9014e-22,2.3226e-19,2.3206e-19,2.3699e-19,2.2797e-19,8.2166e-18,1.5966e-14,6.1172e-18
6.7426,6.6208e-22,2.232e-19,2.2302e-19,2.2767e-19,2.1916e-19,8.038e-18,1.1079e-14,5.9906e-18
6.8051,6.3554e-22,2.147e-19,2.1453e-19,2.1892e-19,2.1089e-19,7.8709e-18,8.3993e-15,5.872e-18
